counter, roll, pitch, yaw, pan, tilt, lati, longi, timestp, heading, rateofturn, cog, sog2, sow, sog, temp, humidity, pressure, wind_speed, wind_angle, bb_roll, bb_pitch, bb_yaw, proc_ptu_mode, proc_colav_limit, proc_colav_speed, proc_surveil_speed
128391, 3.955749988555908, -0.05569848045706749, 143.3485870361328, 32.790000915527344, 3.509999990463257, 0.0, 0.0, 0.0, 0.0, 0.0, 0.0, 0.0, 0.0, 0.0, 0.0, 0.0, 0.0, 0.0, 0.0, 0.0, 0.0, 0.0, 3, 35.0, 0.015, 0.015 
128395, 3.605741024017334, -0.004359004553407431, 143.53738403320312, 32.56999969482422, 3.5299999713897705, 0.0, 0.0, 0.0, 0.0, 0.0, 0.0, 0.0, 0.0, 0.0, 0.0, 0.0, 0.0, 0.0, 0.0, 0.0, 0.0, 0.0, 3, 35.0, 0.015, 0.015 
128396, 3.5491364002227783, -0.006873677484691143, 143.5804443359375, 32.43000030517578, 3.5299999713897705, 0.0, 0.0, 0.0, 0.0, 0.0, 0.0, 0.0, 0.0, 0.0, 0.0, 0.0, 0.0, 0.0, 0.0, 0.0, 0.0, 0.0, 3, 35.0, 0.015, 0.015 
128398, 3.382575511932373, 0.043778594583272934, 143.65432739257812, 32.279998779296875, 3.5299999713897705, 0.0, 0.0, 0.0, 0.0, 0.0, 0.0, 0.0, 0.0, 0.0, 0.0, 0.0, 0.0, 0.0, 0.0, 0.0, 0.0, 0.0, 3, 35.0, 0.015, 0.015 
128400, 3.194857120513916, 0.050443459302186966, 143.76072692871094, 32.13999938964844, 3.5299999713897705, 0.0, 0.0, 0.0, 0.0, 0.0, 0.0, 0.0, 0.0, 0.0, 0.0, 0.0, 0.0, 0.0, 0.0, 0.0, 0.0, 0.0, 3, 35.0, 0.015, 0.015 
128402, 3.0004539489746094, 0.11590750515460968, 143.90077209472656, 31.979999542236328, 3.5299999713897705, 0.0, 0.0, 0.0, 0.0, 0.0, 0.0, 0.0, 0.0, 0.0, 0.0, 0.0, 0.0, 0.0, 0.0, 0.0, 0.0, 0.0, 3, 35.0, 0.015, 0.015 
128405, 2.654365062713623, 0.1703869253396988, 144.12110900878906, 31.81999969482422, 3.509999990463257, 0.0, 0.0, 0.0, 0.0, 0.0, 0.0, 0.0, 0.0, 0.0, 0.0, 0.0, 0.0, 0.0, 0.0, 0.0, 0.0, 0.0, 3, 35.0, 0.015, 0.015 
128407, 2.448456287384033, 0.22224462032318115, 144.27603149414062, 31.56999969482422, 3.430000066757202, 0.0, 0.0, 0.0, 0.0, 0.0, 0.0, 0.0, 0.0, 0.0, 0.0, 0.0, 0.0, 0.0, 0.0, 0.0, 0.0, 0.0, 3, 35.0, 0.015, 0.015 
128409, 2.2239151000976562, 0.24506884813308716, 144.3778839111328, 31.40999984741211, 3.369999885559082, 0.0, 0.0, 0.0, 0.0, 0.0, 0.0, 0.0, 0.0, 0.0, 0.0, 0.0, 0.0, 0.0, 0.0, 0.0, 0.0, 0.0, 3, 35.0, 0.015, 0.015 
128411, 1.9803274869918823, 0.21778321266174316, 144.5568084716797, 31.25, 3.299999952316284, 0.0, 0.0, 0.0, 0.0, 0.0, 0.0, 0.0, 0.0, 0.0, 0.0, 0.0, 0.0, 0.0, 0.0, 0.0, 0.0, 0.0, 3, 35.0, 0.015, 0.015 
128413, 1.7402210235595703, 0.35518312454223633, 144.72181701660156, 31.09000015258789, 3.2200000286102295, 0.0, 0.0, 0.0, 0.0, 0.0, 0.0, 0.0, 0.0, 0.0, 0.0, 0.0, 0.0, 0.0, 0.0, 0.0, 0.0, 0.0, 3, 35.0, 0.015, 0.015 
128420, 1.0204275846481323, 0.44590941071510315, 145.25286865234375, 30.520000457763672, 2.8299999237060547, 0.0, 0.0, 0.0, 0.0, 0.0, 0.0, 0.0, 0.0, 0.0, 0.0, 0.0, 0.0, 0.0, 0.0, 0.0, 0.0, 0.0, 3, 35.0, 0.015, 0.015 
128422, 0.8265136480331421, 0.47206762433052063, 145.4336395263672, 30.360000610351562, 2.700000047683716, 0.0, 0.0, 0.0, 0.0, 0.0, 0.0, 0.0, 0.0, 0.0, 0.0, 0.0, 0.0, 0.0, 0.0, 0.0, 0.0, 0.0, 3, 35.0, 0.015, 0.015 
128422, 0.8265136480331421, 0.47206762433052063, 145.4336395263672, 30.360000610351562, 2.700000047683716, 0.0, 0.0, 0.0, 0.0, 0.0, 0.0, 0.0, 0.0, 0.0, 0.0, 0.0, 0.0, 0.0, 0.0, 0.0, 0.0, 0.0, 3, 35.0, 0.015, 0.015 
128422, 0.8265136480331421, 0.47206762433052063, 145.4336395263672, 30.360000610351562, 2.700000047683716, 0.0, 0.0, 0.0, 0.0, 0.0, 0.0, 0.0, 0.0, 0.0, 0.0, 0.0, 0.0, 0.0, 0.0, 0.0, 0.0, 0.0, 3, 35.0, 0.015, 0.015 
128425, 0.5044856071472168, 0.5625578761100769, 145.72454833984375, 30.200000762939453, 2.549999952316284, 0.0, 0.0, 0.0, 0.0, 0.0, 0.0, 0.0, 0.0, 0.0, 0.0, 0.0, 0.0, 0.0, 0.0, 0.0, 0.0, 0.0, 3, 35.0, 0.015, 0.015 
128427, 0.3401399552822113, 0.5970804691314697, 145.9209747314453, 29.950000762939453, 2.309999942779541, 0.0, 0.0, 0.0, 0.0, 0.0, 0.0, 0.0, 0.0, 0.0, 0.0, 0.0, 0.0, 0.0, 0.0, 0.0, 0.0, 0.0, 3, 35.0, 0.015, 0.015 
128434, -0.03192049264907837, 0.7149854898452759, 146.50775146484375, 29.389999389648438, 1.649999976158142, 0.0, 0.0, 0.0, 0.0, 0.0, 0.0, 0.0, 0.0, 0.0, 0.0, 0.0, 0.0, 0.0, 0.0, 0.0, 0.0, 0.0, 3, 35.0, 0.015, 0.015 
128436, -0.12519274652004242, 0.7155725955963135, 146.67958068847656, 29.229999542236328, 1.440000057220459, 0.0, 0.0, 0.0, 0.0, 0.0, 0.0, 0.0, 0.0, 0.0, 0.0, 0.0, 0.0, 0.0, 0.0, 0.0, 0.0, 0.0, 3, 35.0, 0.015, 0.015 
128436, -0.12519274652004242, 0.7155725955963135, 146.67958068847656, 29.229999542236328, 1.440000057220459, 0.0, 0.0, 0.0, 0.0, 0.0, 0.0, 0.0, 0.0, 0.0, 0.0, 0.0, 0.0, 0.0, 0.0, 0.0, 0.0, 0.0, 3, 35.0, 0.015, 0.015 
128438, -0.19417281448841095, 0.6998899579048157, 146.8634796142578, 29.059999465942383, 1.2200000286102295, 0.0, 0.0, 0.0, 0.0, 0.0, 0.0, 0.0, 0.0, 0.0, 0.0, 0.0, 0.0, 0.0, 0.0, 0.0, 0.0, 0.0, 3, 35.0, 0.015, 0.015 
128439, -0.20746293663978577, 0.6863508224487305, 146.99380493164062, 28.979999542236328, 1.1200000047683716, 0.0, 0.0, 0.0, 0.0, 0.0, 0.0, 0.0, 0.0, 0.0, 0.0, 0.0, 0.0, 0.0, 0.0, 0.0, 0.0, 0.0, 3, 35.0, 0.015, 0.015 
128440, -0.21188989281654358, 0.7179568409919739, 147.05865478515625, 28.899999618530273, 1.0099999904632568, 0.0, 0.0, 0.0, 0.0, 0.0, 0.0, 0.0, 0.0, 0.0, 0.0, 0.0, 0.0, 0.0, 0.0, 0.0, 0.0, 0.0, 3, 35.0, 0.015, 0.015 
128442, -0.21727152168750763, 0.7166662812232971, 147.2464599609375, 28.739999771118164, 0.800000011920929, 0.0, 0.0, 0.0, 0.0, 0.0, 0.0, 0.0, 0.0, 0.0, 0.0, 0.0, 0.0, 0.0, 0.0, 0.0, 0.0, 0.0, 3, 35.0, 0.015, 0.015 
128444, -0.22073733806610107, 0.6906689405441284, 147.414794921875, 28.579999923706055, 0.5799999833106995, 0.0, 0.0, 0.0, 0.0, 0.0, 0.0, 0.0, 0.0, 0.0, 0.0, 0.0, 0.0, 0.0, 0.0, 0.0, 0.0, 0.0, 3, 35.0, 0.015, 0.015 
128447, -0.18784406781196594, 0.669046938419342, 147.6854248046875, 28.329999923706055, 0.27000001072883606, 0.0, 0.0, 0.0, 0.0, 0.0, 0.0, 0.0, 0.0, 0.0, 0.0, 0.0, 0.0, 0.0, 0.0, 0.0, 0.0, 0.0, 3, 35.0, 0.015, 0.015 
128449, -0.15034399926662445, 0.5890347361564636, 147.88246154785156, 28.170000076293945, 0.07999999821186066, 0.0, 0.0, 0.0, 0.0, 0.0, 0.0, 0.0, 0.0, 0.0, 0.0, 0.0, 0.0, 0.0, 0.0, 0.0, 0.0, 0.0, 3, 35.0, 0.015, 0.015 
128451, -0.07961660623550415, 0.5904010534286499, 148.03746032714844, 28.010000228881836, -0.10000000149011612, 0.0, 0.0, 0.0, 0.0, 0.0, 0.0, 0.0, 0.0, 0.0, 0.0, 0.0, 0.0, 0.0, 0.0, 0.0, 0.0, 0.0, 3, 35.0, 0.015, 0.015 
128453, -0.02382172830402851, 0.555626392364502, 148.19166564941406, 27.850000381469727, -0.2800000011920929, 0.0, 0.0, 0.0, 0.0, 0.0, 0.0, 0.0, 0.0, 0.0, 0.0, 0.0, 0.0, 0.0, 0.0, 0.0, 0.0, 0.0, 3, 35.0, 0.015, 0.015 
128456, 0.04725933447480202, 0.4095551669597626, 148.4521942138672, 27.610000610351562, -0.5099999904632568, 0.0, 0.0, 0.0, 0.0, 0.0, 0.0, 0.0, 0.0, 0.0, 0.0, 0.0, 0.0, 0.0, 0.0, 0.0, 0.0, 0.0, 3, 35.0, 0.015, 0.015 
128457, 0.10500897467136383, 0.38471731543540955, 148.54879760742188, 27.440000534057617, -0.6399999856948853, 0.0, 0.0, 0.0, 0.0, 0.0, 0.0, 0.0, 0.0, 0.0, 0.0, 0.0, 0.0, 0.0, 0.0, 0.0, 0.0, 0.0, 3, 35.0, 0.015, 0.015 
128460, 0.24685315787792206, 0.27805933356285095, 148.79782104492188, 27.280000686645508, -0.7400000095367432, 0.0, 0.0, 0.0, 0.0, 0.0, 0.0, 0.0, 0.0, 0.0, 0.0, 0.0, 0.0, 0.0, 0.0, 0.0, 0.0, 0.0, 3, 35.0, 0.015, 0.015 
128462, 0.31289607286453247, 0.18157556653022766, 148.9009246826172, 27.1200008392334, -0.8199999928474426, 0.0, 0.0, 0.0, 0.0, 0.0, 0.0, 0.0, 0.0, 0.0, 0.0, 0.0, 0.0, 0.0, 0.0, 0.0, 0.0, 0.0, 3, 35.0, 0.015, 0.015 
128464, 0.3630951941013336, 0.08711452782154083, 149.06219482421875, 26.959999084472656, -0.8700000047683716, 0.0, 0.0, 0.0, 0.0, 0.0, 0.0, 0.0, 0.0, 0.0, 0.0, 0.0, 0.0, 0.0, 0.0, 0.0, 0.0, 0.0, 3, 35.0, 0.015, 0.015 
128467, 0.41518649458885193, 0.0327700637280941, 149.3173370361328, 26.709999084472656, -0.8899999856948853, 0.0, 0.0, 0.0, 0.0, 0.0, 0.0, 0.0, 0.0, 0.0, 0.0, 0.0, 0.0, 0.0, 0.0, 0.0, 0.0, 0.0, 3, 35.0, 0.015, 0.015 
128470, 0.5197761058807373, -0.12839332222938538, 149.52999877929688, 26.469999313354492, -0.8899999856948853, 0.0, 0.0, 0.0, 0.0, 0.0, 0.0, 0.0, 0.0, 0.0, 0.0, 0.0, 0.0, 0.0, 0.0, 0.0, 0.0, 0.0, 3, 35.0, 0.015, 0.015 
128471, 0.5705883502960205, -0.1887822449207306, 149.6070556640625, 26.389999389648438, -0.8799999952316284, 0.0, 0.0, 0.0, 0.0, 0.0, 0.0, 0.0, 0.0, 0.0, 0.0, 0.0, 0.0, 0.0, 0.0, 0.0, 0.0, 0.0, 3, 35.0, 0.015, 0.015 
128473, 0.6532750129699707, -0.3059416711330414, 149.7060089111328, 26.229999542236328, -0.8199999928474426, 0.0, 0.0, 0.0, 0.0, 0.0, 0.0, 0.0, 0.0, 0.0, 0.0, 0.0, 0.0, 0.0, 0.0, 0.0, 0.0, 0.0, 3, 35.0, 0.015, 0.015 
128476, 0.6976433992385864, -0.4296207129955292, 149.8936004638672, 25.979999542236328, -0.6700000166893005, 0.0, 0.0, 0.0, 0.0, 0.0, 0.0, 0.0, 0.0, 0.0, 0.0, 0.0, 0.0, 0.0, 0.0, 0.0, 0.0, 0.0, 3, 35.0, 0.015, 0.015 
128478, 0.6991506814956665, -0.46116772294044495, 150.0241241455078, 25.81999969482422, -0.550000011920929, 0.0, 0.0, 0.0, 0.0, 0.0, 0.0, 0.0, 0.0, 0.0, 0.0, 0.0, 0.0, 0.0, 0.0, 0.0, 0.0, 0.0, 3, 35.0, 0.015, 0.015 
128480, 0.7106128931045532, -0.4863791763782501, 150.1566925048828, 25.65999984741211, -0.4099999964237213, 0.0, 0.0, 0.0, 0.0, 0.0, 0.0, 0.0, 0.0, 0.0, 0.0, 0.0, 0.0, 0.0, 0.0, 0.0, 0.0, 0.0, 3, 35.0, 0.015, 0.015 
128482, 0.7330023050308228, -0.5322487354278564, 150.291748046875, 25.5, -0.27000001072883606, 0.0, 0.0, 0.0, 0.0, 0.0, 0.0, 0.0, 0.0, 0.0, 0.0, 0.0, 0.0, 0.0, 0.0, 0.0, 0.0, 0.0, 3, 35.0, 0.015, 0.015 
128484, 0.7693889141082764, -0.6144172549247742, 150.40655517578125, 25.34000015258789, -0.11999999731779099, 0.0, 0.0, 0.0, 0.0, 0.0, 0.0, 0.0, 0.0, 0.0, 0.0, 0.0, 0.0, 0.0, 0.0, 0.0, 0.0, 0.0, 3, 35.0, 0.015, 0.015 
128487, 0.8302323818206787, -0.6653692722320557, 150.56695556640625, 25.09000015258789, 0.15000000596046448, 0.0, 0.0, 0.0, 0.0, 0.0, 0.0, 0.0, 0.0, 0.0, 0.0, 0.0, 0.0, 0.0, 0.0, 0.0, 0.0, 0.0, 3, 35.0, 0.015, 0.015 
128489, 0.8604999780654907, -0.6731439828872681, 150.6873321533203, 24.93000030517578, 0.3400000035762787, 0.0, 0.0, 0.0, 0.0, 0.0, 0.0, 0.0, 0.0, 0.0, 0.0, 0.0, 0.0, 0.0, 0.0, 0.0, 0.0, 0.0, 3, 35.0, 0.015, 0.015 
128491, 0.8828974962234497, -0.6642007827758789, 150.787841796875, 24.770000457763672, 0.550000011920929, 0.0, 0.0, 0.0, 0.0, 0.0, 0.0, 0.0, 0.0, 0.0, 0.0, 0.0, 0.0, 0.0, 0.0, 0.0, 0.0, 0.0, 3, 35.0, 0.015, 0.015 
128493, 0.8927648663520813, -0.6614975929260254, 150.86309814453125, 24.610000610351562, 0.75, 0.0, 0.0, 0.0, 0.0, 0.0, 0.0, 0.0, 0.0, 0.0, 0.0, 0.0, 0.0, 0.0, 0.0, 0.0, 0.0, 0.0, 3, 35.0, 0.015, 0.015 
128495, 0.8847988843917847, -0.6326599717140198, 150.9785614013672, 24.440000534057617, 0.9599999785423279, 0.0, 0.0, 0.0, 0.0, 0.0, 0.0, 0.0, 0.0, 0.0, 0.0, 0.0, 0.0, 0.0, 0.0, 0.0, 0.0, 0.0, 3, 35.0, 0.015, 0.015 
128498, 0.8742738962173462, -0.6215806603431702, 151.09539794921875, 24.200000762939453, 1.2400000095367432, 0.0, 0.0, 0.0, 0.0, 0.0, 0.0, 0.0, 0.0, 0.0, 0.0, 0.0, 0.0, 0.0, 0.0, 0.0, 0.0, 0.0, 3, 35.0, 0.015, 0.015 
128500, 0.8857142329216003, -0.5731426477432251, 151.17417907714844, 24.040000915527344, 1.4199999570846558, 0.0, 0.0, 0.0, 0.0, 0.0, 0.0, 0.0, 0.0, 0.0, 0.0, 0.0, 0.0, 0.0, 0.0, 0.0, 0.0, 0.0, 3, 35.0, 0.015, 0.015 
128502, 0.8984252214431763, -0.5586991906166077, 151.2562255859375, 23.8799991607666, 1.590000033378601, 0.0, 0.0, 0.0, 0.0, 0.0, 0.0, 0.0, 0.0, 0.0, 0.0, 0.0, 0.0, 0.0, 0.0, 0.0, 0.0, 0.0, 3, 35.0, 0.015, 0.015 
128504, 0.8965005874633789, -0.5174664855003357, 151.3338165283203, 23.719999313354492, 1.7599999904632568, 0.0, 0.0, 0.0, 0.0, 0.0, 0.0, 0.0, 0.0, 0.0, 0.0, 0.0, 0.0, 0.0, 0.0, 0.0, 0.0, 0.0, 3, 35.0, 0.015, 0.015 
128507, 0.8669746518135071, -0.4069906771183014, 151.46832275390625, 23.469999313354492, 1.9900000095367432, 0.0, 0.0, 0.0, 0.0, 0.0, 0.0, 0.0, 0.0, 0.0, 0.0, 0.0, 0.0, 0.0, 0.0, 0.0, 0.0, 0.0, 3, 35.0, 0.015, 0.015 
128509, 0.848972499370575, -0.2904600203037262, 151.54412841796875, 23.309999465942383, 2.130000114440918, 0.0, 0.0, 0.0, 0.0, 0.0, 0.0, 0.0, 0.0, 0.0, 0.0, 0.0, 0.0, 0.0, 0.0, 0.0, 0.0, 0.0, 3, 35.0, 0.015, 0.015 
128511, 0.8536492586135864, -0.22930240631103516, 151.63388061523438, 23.149999618530273, 2.2200000286102295, 0.0, 0.0, 0.0, 0.0, 0.0, 0.0, 0.0, 0.0, 0.0, 0.0, 0.0, 0.0, 0.0, 0.0, 0.0, 0.0, 0.0, 3, 35.0, 0.015, 0.015 
128513, 0.8824495077133179, -0.21401363611221313, 151.6802215576172, 22.989999771118164, 2.299999952316284, 0.0, 0.0, 0.0, 0.0, 0.0, 0.0, 0.0, 0.0, 0.0, 0.0, 0.0, 0.0, 0.0, 0.0, 0.0, 0.0, 0.0, 3, 35.0, 0.015, 0.015 
128515, 0.9163002371788025, -0.11110866814851761, 151.74278259277344, 22.81999969482422, 2.359999895095825, 0.0, 0.0, 0.0, 0.0, 0.0, 0.0, 0.0, 0.0, 0.0, 0.0, 0.0, 0.0, 0.0, 0.0, 0.0, 0.0, 0.0, 3, 35.0, 0.015, 0.015 
128518, 0.9269823431968689, 0.005616250913590193, 151.8374481201172, 22.579999923706055, 2.4200000762939453, 0.0, 0.0, 0.0, 0.0, 0.0, 0.0, 0.0, 0.0, 0.0, 0.0, 0.0, 0.0, 0.0, 0.0, 0.0, 0.0, 0.0, 3, 35.0, 0.015, 0.015 
128520, 0.9203763604164124, 0.13252516090869904, 151.9127655029297, 22.420000076293945, 2.4200000762939453, 0.0, 0.0, 0.0, 0.0, 0.0, 0.0, 0.0, 0.0, 0.0, 0.0, 0.0, 0.0, 0.0, 0.0, 0.0, 0.0, 0.0, 3, 35.0, 0.015, 0.015 
128522, 0.9368192553520203, 0.22823640704154968, 151.99630737304688, 22.260000228881836, 2.4000000953674316, 0.0, 0.0, 0.0, 0.0, 0.0, 0.0, 0.0, 0.0, 0.0, 0.0, 0.0, 0.0, 0.0, 0.0, 0.0, 0.0, 0.0, 3, 35.0, 0.015, 0.015 
128524, 0.9874988198280334, 0.3448331356048584, 152.04605102539062, 22.010000228881836, 2.299999952316284, 0.0, 0.0, 0.0, 0.0, 0.0, 0.0, 0.0, 0.0, 0.0, 0.0, 0.0, 0.0, 0.0, 0.0, 0.0, 0.0, 0.0, 3, 35.0, 0.015, 0.015 
128527, 1.0956826210021973, 0.4726671874523163, 152.1552276611328, 21.850000381469727, 2.180000066757202, 0.0, 0.0, 0.0, 0.0, 0.0, 0.0, 0.0, 0.0, 0.0, 0.0, 0.0, 0.0, 0.0, 0.0, 0.0, 0.0, 0.0, 3, 35.0, 0.015, 0.015 
128529, 1.1620229482650757, 0.5928539633750916, 152.2145538330078, 21.690000534057617, 2.0399999618530273, 0.0, 0.0, 0.0, 0.0, 0.0, 0.0, 0.0, 0.0, 0.0, 0.0, 0.0, 0.0, 0.0, 0.0, 0.0, 0.0, 0.0, 3, 35.0, 0.015, 0.015 
128531, 1.2314420938491821, 0.7036641836166382, 152.2755584716797, 21.530000686645508, 1.8700000047683716, 0.0, 0.0, 0.0, 0.0, 0.0, 0.0, 0.0, 0.0, 0.0, 0.0, 0.0, 0.0, 0.0, 0.0, 0.0, 0.0, 0.0, 3, 35.0, 0.015, 0.015 
128533, 1.3047034740447998, 0.7669306993484497, 152.34988403320312, 21.3700008392334, 1.6799999475479126, 0.0, 0.0, 0.0, 0.0, 0.0, 0.0, 0.0, 0.0, 0.0, 0.0, 0.0, 0.0, 0.0, 0.0, 0.0, 0.0, 0.0, 3, 35.0, 0.015, 0.015 
128536, 1.423941731452942, 0.8892630338668823, 152.4272003173828, 21.1200008392334, 1.3300000429153442, 0.0, 0.0, 0.0, 0.0, 0.0, 0.0, 0.0, 0.0, 0.0, 0.0, 0.0, 0.0, 0.0, 0.0, 0.0, 0.0, 0.0, 3, 35.0, 0.015, 0.015 
128538, 1.538941502571106, 0.9756765365600586, 152.4748992919922, 20.959999084472656, 1.059999942779541, 0.0, 0.0, 0.0, 0.0, 0.0, 0.0, 0.0, 0.0, 0.0, 0.0, 0.0, 0.0, 0.0, 0.0, 0.0, 0.0, 0.0, 3, 35.0, 0.015, 0.015 
128540, 1.6494501829147339, 1.0174615383148193, 152.55117797851562, 20.799999237060547, 0.7799999713897705, 0.0, 0.0, 0.0, 0.0, 0.0, 0.0, 0.0, 0.0, 0.0, 0.0, 0.0, 0.0, 0.0, 0.0, 0.0, 0.0, 0.0, 3, 35.0, 0.015, 0.015 
128542, 1.7638591527938843, 1.1232162714004517, 152.6027374267578, 20.639999389648438, 0.47999998927116394, 0.0, 0.0, 0.0, 0.0, 0.0, 0.0, 0.0, 0.0, 0.0, 0.0, 0.0, 0.0, 0.0, 0.0, 0.0, 0.0, 0.0, 3, 35.0, 0.015, 0.015 
128545, 1.9653737545013428, 1.1071250438690186, 152.7141876220703, 20.389999389648438, -0.009999999776482582, 0.0, 0.0, 0.0, 0.0, 0.0, 0.0, 0.0, 0.0, 0.0, 0.0, 0.0, 0.0, 0.0, 0.0, 0.0, 0.0, 0.0, 3, 35.0, 0.015, 0.015 
128547, 2.085390090942383, 1.0928692817687988, 152.78884887695312, 20.229999542236328, -0.3499999940395355, 0.0, 0.0, 0.0, 0.0, 0.0, 0.0, 0.0, 0.0, 0.0, 0.0, 0.0, 0.0, 0.0, 0.0, 0.0, 0.0, 0.0, 3, 35.0, 0.015, 0.015 
128549, 2.2201201915740967, 1.1530722379684448, 152.86618041992188, 20.06999969482422, -0.6700000166893005, 0.0, 0.0, 0.0, 0.0, 0.0, 0.0, 0.0, 0.0, 0.0, 0.0, 0.0, 0.0, 0.0, 0.0, 0.0, 0.0, 0.0, 3, 35.0, 0.015, 0.015 
128551, 2.343924045562744, 1.1612690687179565, 152.92681884765625, 19.90999984741211, -1.0099999904632568, 0.0, 0.0, 0.0, 0.0, 0.0, 0.0, 0.0, 0.0, 0.0, 0.0, 0.0, 0.0, 0.0, 0.0, 0.0, 0.0, 0.0, 3, 35.0, 0.015, 0.015 
128553, 2.462827205657959, 1.0463323593139648, 153.01300048828125, 19.75, -1.3600000143051147, 0.0, 0.0, 0.0, 0.0, 0.0, 0.0, 0.0, 0.0, 0.0, 0.0, 0.0, 0.0, 0.0, 0.0, 0.0, 0.0, 0.0, 3, 35.0, 0.015, 0.015 
128556, 2.643669605255127, 0.8884919285774231, 153.11648559570312, 19.5, -1.850000023841858, 0.0, 0.0, 0.0, 0.0, 0.0, 0.0, 0.0, 0.0, 0.0, 0.0, 0.0, 0.0, 0.0, 0.0, 0.0, 0.0, 0.0, 3, 35.0, 0.015, 0.015 
128558, 2.8052406311035156, 0.7615066170692444, 153.16622924804688, 19.34000015258789, -2.130000114440918, 0.0, 0.0, 0.0, 0.0, 0.0, 0.0, 0.0, 0.0, 0.0, 0.0, 0.0, 0.0, 0.0, 0.0, 0.0, 0.0, 0.0, 3, 35.0, 0.015, 0.015 
128560, 2.9973342418670654, 0.575539231300354, 153.2827606201172, 19.18000030517578, -2.369999885559082, 0.0, 0.0, 0.0, 0.0, 0.0, 0.0, 0.0, 0.0, 0.0, 0.0, 0.0, 0.0, 0.0, 0.0, 0.0, 0.0, 0.0, 3, 35.0, 0.015, 0.015 
128563, 3.1366875171661377, 0.3350067138671875, 153.33204650878906, 18.940000534057617, -2.6500000953674316, 0.0, 0.0, 0.0, 0.0, 0.0, 0.0, 0.0, 0.0, 0.0, 0.0, 0.0, 0.0, 0.0, 0.0, 0.0, 0.0, 0.0, 3, 35.0, 0.015, 0.015 
128565, 3.2123422622680664, 0.18041831254959106, 153.39781188964844, 18.770000457763672, -2.7799999713897705, 0.0, 0.0, 0.0, 0.0, 0.0, 0.0, 0.0, 0.0, 0.0, 0.0, 0.0, 0.0, 0.0, 0.0, 0.0, 0.0, 0.0, 3, 35.0, 0.015, 0.015 
128567, 3.2734503746032715, 0.0694369450211525, 153.46743774414062, 18.610000610351562, -2.8499999046325684, 0.0, 0.0, 0.0, 0.0, 0.0, 0.0, 0.0, 0.0, 0.0, 0.0, 0.0, 0.0, 0.0, 0.0, 0.0, 0.0, 0.0, 3, 35.0, 0.015, 0.015 
128569, 3.3244118690490723, -0.10136514902114868, 153.49037170410156, 18.450000762939453, -2.890000104904175, 0.0, 0.0, 0.0, 0.0, 0.0, 0.0, 0.0, 0.0, 0.0, 0.0, 0.0, 0.0, 0.0, 0.0, 0.0, 0.0, 0.0, 3, 35.0, 0.015, 0.015 
128571, 3.3590869903564453, -0.31166166067123413, 153.53179931640625, 18.290000915527344, -2.880000114440918, 0.0, 0.0, 0.0, 0.0, 0.0, 0.0, 0.0, 0.0, 0.0, 0.0, 0.0, 0.0, 0.0, 0.0, 0.0, 0.0, 0.0, 3, 35.0, 0.015, 0.015 
128573, 3.3612220287323, -0.4916002154350281, 153.6018829345703, 18.1299991607666, -2.819999933242798, 0.0, 0.0, 0.0, 0.0, 0.0, 0.0, 0.0, 0.0, 0.0, 0.0, 0.0, 0.0, 0.0, 0.0, 0.0, 0.0, 0.0, 3, 35.0, 0.015, 0.015 
128575, 3.3344106674194336, -0.6157835125923157, 153.5913848876953, 17.959999084472656, -2.690000057220459, 0.0, 0.0, 0.0, 0.0, 0.0, 0.0, 0.0, 0.0, 0.0, 0.0, 0.0, 0.0, 0.0, 0.0, 0.0, 0.0, 0.0, 3, 35.0, 0.015, 0.015 
128578, 3.2747931480407715, -0.7234698534011841, 153.6299285888672, 17.719999313354492, -2.430000066757202, 0.0, 0.0, 0.0, 0.0, 0.0, 0.0, 0.0, 0.0, 0.0, 0.0, 0.0, 0.0, 0.0, 0.0, 0.0, 0.0, 0.0, 3, 35.0, 0.015, 0.015 
128580, 3.213735342025757, -0.7662068605422974, 153.70082092285156, 17.559999465942383, -2.2200000286102295, 0.0, 0.0, 0.0, 0.0, 0.0, 0.0, 0.0, 0.0, 0.0, 0.0, 0.0, 0.0, 0.0, 0.0, 0.0, 0.0, 0.0, 3, 35.0, 0.015, 0.015 
128582, 3.149160385131836, -0.8962449431419373, 153.666259765625, 17.399999618530273, -2.0, 0.0, 0.0, 0.0, 0.0, 0.0, 0.0, 0.0, 0.0, 0.0, 0.0, 0.0, 0.0, 0.0, 0.0, 0.0, 0.0, 0.0, 3, 35.0, 0.015, 0.015 
128584, 3.0980262756347656, -1.0585678815841675, 153.6934814453125, 17.229999542236328, -1.7400000095367432, 0.0, 0.0, 0.0, 0.0, 0.0, 0.0, 0.0, 0.0, 0.0, 0.0, 0.0, 0.0, 0.0, 0.0, 0.0, 0.0, 0.0, 3, 35.0, 0.015, 0.015 
128587, 3.0009632110595703, -1.129460334777832, 153.7060546875, 16.989999771118164, -1.2899999618530273, 0.0, 0.0, 0.0, 0.0, 0.0, 0.0, 0.0, 0.0, 0.0, 0.0, 0.0, 0.0, 0.0, 0.0, 0.0, 0.0, 0.0, 3, 35.0, 0.015, 0.015 
128589, 2.8649725914001465, -1.1817991733551025, 153.68482971191406, 16.829999923706055, -0.9599999785423279, 0.0, 0.0, 0.0, 0.0, 0.0, 0.0, 0.0, 0.0, 0.0, 0.0, 0.0, 0.0, 0.0, 0.0, 0.0, 0.0, 0.0, 3, 35.0, 0.015, 0.015 
128591, 2.6949496269226074, -1.2072269916534424, 153.7280731201172, 16.670000076293945, -0.6100000143051147, 0.0, 0.0, 0.0, 0.0, 0.0, 0.0, 0.0, 0.0, 0.0, 0.0, 0.0, 0.0, 0.0, 0.0, 0.0, 0.0, 0.0, 3, 35.0, 0.015, 0.015 
